% Moku:Go Oscilloscope
% Channel A
% Channel B
% Time span 17.72 ms, time offset 117.5 us, Normal acquisition mode, no averaging
% Edge trigger: Channel A, level 0.000 V, Auto mode, Rising edge, Auto sensitivity, noise reject off, HF reject off
% Output A - Sine, 10.000 000 000 000 MHz, 1.000 0 Vpp, offset 0.000 0 V, phase 0.000 000 deg
% Acquired 2023-03-20 T 16:59:00 +1100
% Time (s), Channel A (Input 1) (V), Freq (Hz), Math (Ch A FFT) (dBm)
-8.980496000000e-03, 3.102101e-01, 0.000000e+00, -1.935283e+01
-8.963120000000e-03, 4.872985e-01, 1.737600e-05, -2.075482e+01
-8.945744000000e-03, 6.485100e-01, 3.475200e-05, -2.528212e+01
-8.928368000000e-03, 7.596483e-01, 5.212800e-05, -3.452432e+01
-8.910992000000e-03, 8.524671e-01, 6.950400e-05, -5.378224e+01
-8.893616000000e-03, 8.597949e-01, 8.688000e-05, -4.802757e+01
-8.876240000000e-03, 8.817783e-01, 1.042560e-04, -5.529332e+01
-8.858864000000e-03, 8.317050e-01, 1.216320e-04, -5.779036e+01
-8.841488000000e-03, 8.085003e-01, 1.390080e-04, -5.796969e+01
-8.824112000000e-03, 6.814851e-01, 1.563840e-04, -5.600058e+01
-8.806736000000e-03, 5.324866e-01, 1.737600e-04, -5.354028e+01
-8.789360000000e-03, 3.651686e-01, 1.911360e-04, -5.495572e+01
-8.771984000000e-03, 1.746458e-01, 2.085120e-04, -6.065528e+01
-8.754608000000e-03, -1.587689e-02, 2.258880e-04, -5.722043e+01
-8.737232000000e-03, -2.259404e-01, 2.432640e-04, -5.124727e+01
-8.719856000000e-03, -3.773816e-01, 2.606400e-04, -4.744364e+01
-8.702480000000e-03, -5.654617e-01, 2.780160e-04, -4.583860e+01
-8.685104000000e-03, -6.778212e-01, 2.953920e-04, -4.653443e+01
-8.667728000000e-03, -7.584270e-01, 3.127680e-04, -4.989128e+01
-8.650352000000e-03, -8.219346e-01, 3.301440e-04, -5.447499e+01
-8.632976000000e-03, -8.549097e-01, 3.475200e-04, -5.240534e+01
-8.615600000000e-03, -8.329263e-01, 3.648960e-04, -5.051181e+01
-8.598224000000e-03, -7.657548e-01, 3.822720e-04, -5.122305e+01
-8.580848000000e-03, -7.107963e-01, 3.996480e-04, -5.475608e+01
-8.563472000000e-03, -5.532487e-01, 4.170240e-04, -6.323856e+01
-8.546096000000e-03, -4.018075e-01, 4.344000e-04, -7.382903e+01
-8.528720000000e-03, -2.100635e-01, 4.517760e-04, -6.278141e+01
-8.511344000000e-03, -2.931119e-02, 4.691520e-04, -6.065584e+01
-8.493968000000e-03, 1.819736e-01, 4.865280e-04, -6.180695e+01
-8.476592000000e-03, 3.663899e-01, 5.039040e-04, -6.347730e+01
-8.459216000000e-03, 5.239375e-01, 5.212800e-04, -5.759702e+01
-8.441840000000e-03, 7.022472e-01, 5.386560e-04, -4.913382e+01
-8.424464000000e-03, 7.840743e-01, 5.560320e-04, -4.450323e+01
-8.407088000000e-03, 8.439180e-01, 5.734080e-04, -4.330674e+01
-8.389712000000e-03, 8.573523e-01, 5.907840e-04, -4.507076e+01
-8.372336000000e-03, 9.013190e-01, 6.081600e-04, -4.967414e+01
-8.354960000000e-03, 8.500245e-01, 6.255360e-04, -5.801854e+01
-8.337584000000e-03, 7.816317e-01, 6.429120e-04, -6.367452e+01
-8.320208000000e-03, 6.704934e-01, 6.602880e-04, -5.927449e+01
-8.302832000000e-03, 4.958476e-01, 6.776640e-04, -6.071587e+01
-8.285456000000e-03, 3.273083e-01, 6.950400e-04, -6.451555e+01
-8.268080000000e-03, 1.257939e-01, 7.124160e-04, -6.418736e+01
-8.250704000000e-03, -5.495848e-02, 7.297920e-04, -6.214636e+01
-8.233328000000e-03, -2.747924e-01, 7.471680e-04, -6.613983e+01
-8.215952000000e-03, -4.250122e-01, 7.645440e-04, -7.377765e+01
-8.198576000000e-03, -5.715682e-01, 7.819200e-04, -7.369686e+01
-8.181200000000e-03, -7.010259e-01, 7.992960e-04, -6.324325e+01
-8.163824000000e-03, -7.938447e-01, 8.166720e-04, -6.872458e+01
-8.146448000000e-03, -8.500245e-01, 8.340480e-04, -6.570597e+01
-8.129072000000e-03, -8.304837e-01, 8.514240e-04, -6.837444e+01
-8.111696000000e-03, -8.365902e-01, 8.688000e-04, -6.087789e+01
-8.094320000000e-03, -7.474353e-01, 8.861760e-04, -7.032621e+01
-8.076944000000e-03, -6.790425e-01, 9.035520e-04, -6.069777e+01
-8.059568000000e-03, -5.239375e-01, 9.209280e-04, -7.159663e+01
-8.042192000000e-03, -3.590621e-01, 9.383040e-04, -5.772879e+01
-8.024816000000e-03, -1.685393e-01, 9.556800e-04, -6.576055e+01
-8.007440000000e-03, 2.320469e-02, 9.730560e-04, -5.144238e+01
-7.990064000000e-03, 2.125061e-01, 9.904320e-04, -5.805792e+01
-7.972688000000e-03, 4.201270e-01, 1.007808e-03, -5.040607e+01
-7.955312000000e-03, 5.556913e-01, 1.025184e-03, -5.676516e+01
-7.937936000000e-03, 6.985833e-01, 1.042560e-03, -4.679180e+01
-7.920560000000e-03, 7.767465e-01, 1.059936e-03, -5.638801e+01
-7.903184000000e-03, 8.414754e-01, 1.077312e-03, -4.056539e+01
-7.885808000000e-03, 8.781144e-01, 1.094688e-03, -4.927899e+01
-7.868432000000e-03, 8.805570e-01, 1.112064e-03, -3.391733e+01
-7.851056000000e-03, 8.365902e-01, 1.129440e-03, -4.144343e+01
-7.833680000000e-03, 7.327797e-01, 1.146816e-03, -2.463542e+01
-7.816304000000e-03, 6.326332e-01, 1.164192e-03, -2.951757e+01
-7.798928000000e-03, 4.567660e-01, 1.181568e-03, -8.958682e+00
-7.781552000000e-03, 2.882267e-01, 1.198944e-03, 1.684790e+00
-7.764176000000e-03, 8.060577e-02, 1.216320e-03, 6.915066e+00
-7.746800000000e-03, -9.770396e-02, 1.233696e-03, 8.838453e+00
-7.729424000000e-03, -3.065462e-01, 1.251072e-03, 7.911717e+00
-7.712048000000e-03, -4.799707e-01, 1.268448e-03, 3.928609e+00
-7.694672000000e-03, -6.118711e-01, 1.285824e-03, -4.351504e+00
-7.677296000000e-03, -7.523205e-01, 1.303200e-03, -2.645528e+01
-7.659920000000e-03, -8.085003e-01, 1.320576e-03, -2.268658e+01
-7.642544000000e-03, -8.414754e-01, 1.337952e-03, -3.887381e+01
-7.625168000000e-03, -8.219346e-01, 1.355328e-03, -3.260988e+01
-7.607792000000e-03, -8.402541e-01, 1.372704e-03, -4.712639e+01
-7.590416000000e-03, -7.474353e-01, 1.390080e-03, -3.940596e+01
-7.573040000000e-03, -6.411822e-01, 1.407456e-03, -5.089860e+01
-7.555664000000e-03, -4.995115e-01, 1.424832e-03, -4.637787e+01
-7.538288000000e-03, -3.175379e-01, 1.442208e-03, -6.163001e+01
-7.520912000000e-03, -1.294577e-01, 1.459584e-03, -4.828827e+01
-7.503536000000e-03, 7.449927e-02, 1.476960e-03, -5.734090e+01
-7.486160000000e-03, 2.467025e-01, 1.494336e-03, -5.371047e+01
-7.468784000000e-03, 4.604299e-01, 1.511712e-03, -5.650931e+01
-7.451408000000e-03, 5.959942e-01, 1.529088e-03, -5.144215e+01
-7.434032000000e-03, 7.046898e-01, 1.546464e-03, -5.532572e+01
-7.416656000000e-03, 8.011725e-01, 1.563840e-03, -5.759480e+01
-7.399280000000e-03, 8.720079e-01, 1.581216e-03, -5.800360e+01
-7.381904000000e-03, 8.891061e-01, 1.598592e-03, -5.613103e+01
-7.364528000000e-03, 8.585736e-01, 1.615968e-03, -5.587064e+01
-7.347152000000e-03, 8.451393e-01, 1.633344e-03, -5.534495e+01
-7.329776000000e-03, 7.132389e-01, 1.650720e-03, -5.994128e+01
-7.312400000000e-03, 5.984368e-01, 1.668096e-03, -6.527256e+01
-7.295024000000e-03, 4.201270e-01, 1.685472e-03, -6.956921e+01
-7.277648000000e-03, 2.430386e-01, 1.702848e-03, -7.671949e+01
-7.260272000000e-03, 3.786029e-02, 1.720224e-03, -6.885679e+01
-7.242896000000e-03, -1.489985e-01, 1.737600e-03, -6.205089e+01
-7.225520000000e-03, -3.321935e-01, 1.754976e-03, -6.663036e+01
-7.208144000000e-03, -5.312653e-01, 1.772352e-03, -6.491561e+01
-7.190768000000e-03, -6.436248e-01, 1.789728e-03, -5.941029e+01
-7.173392000000e-03, -7.474353e-01, 1.807104e-03, -5.801239e+01
-7.156016000000e-03, -7.889595e-01, 1.824480e-03, -5.765041e+01
-7.138640000000e-03, -8.365902e-01, 1.841856e-03, -5.747428e+01
-7.121264000000e-03, -8.365902e-01, 1.859232e-03, -5.727744e+01
-7.103888000000e-03, -8.182707e-01, 1.876608e-03, -5.525816e+01
-7.086512000000e-03, -7.486566e-01, 1.893984e-03, -5.234160e+01
-7.069136000000e-03, -6.021007e-01, 1.911360e-03, -5.127952e+01
-7.051760000000e-03, -4.653151e-01, 1.928736e-03, -5.319246e+01
-7.034384000000e-03, -2.747924e-01, 1.946112e-03, -5.784835e+01
-7.017008000000e-03, -9.281876e-02, 1.963488e-03, -6.233335e+01
-6.999632000000e-03, 1.221300e-01, 1.980864e-03, -6.261623e+01
-6.982256000000e-03, 2.906693e-01, 1.998240e-03, -6.153606e+01
-6.964880000000e-03, 4.811920e-01, 2.015616e-03, -6.139119e+01
-6.947504000000e-03, 6.326332e-01, 2.032992e-03, -6.374986e+01
-6.930128000000e-03, 7.401075e-01, 2.050368e-03, -8.117105e+01
-6.912752000000e-03, 8.402541e-01, 2.067744e-03, -5.903572e+01
-6.895376000000e-03, 8.634588e-01, 2.085120e-03, -5.318695e+01
-6.878000000000e-03, 8.781144e-01, 2.102496e-03, -5.172673e+01
-6.860624000000e-03, 8.329263e-01, 2.119872e-03, -5.367439e+01
-6.843248000000e-03, 8.158281e-01, 2.137248e-03, -6.111693e+01
-6.825872000000e-03, 6.875916e-01, 2.154624e-03, -5.633823e+01
-6.808496000000e-03, 5.495848e-01, 2.172000e-03, -5.000843e+01
-6.791120000000e-03, 3.847093e-01, 2.189376e-03, -4.830325e+01
-6.773744000000e-03, 1.954079e-01, 2.206752e-03, -4.994664e+01
-6.756368000000e-03, 0.000000e+00, 2.224128e-03, -5.576965e+01
-6.738992000000e-03, -2.063996e-01, 2.241504e-03, -6.577334e+01
-6.721616000000e-03, -3.663899e-01, 2.258880e-03, -5.881220e+01
-6.704240000000e-03, -5.654617e-01, 2.276256e-03, -5.849504e+01
-6.686864000000e-03, -6.765999e-01, 2.293632e-03, -6.336143e+01
-6.669488000000e-03, -7.510992e-01, 2.311008e-03, -7.985976e+01
-6.652112000000e-03, -8.146068e-01, 2.328384e-03, -7.628851e+01
-6.634736000000e-03, -8.585736e-01, 2.345760e-03, -7.909314e+01
-6.617360000000e-03, -8.414754e-01, 2.363136e-03, -6.464118e+01
-6.599984000000e-03, -7.828530e-01, 2.380512e-03, -5.969291e+01
-6.582608000000e-03, -7.291158e-01, 2.397888e-03, -5.883009e+01
-6.565232000000e-03, -5.679043e-01, 2.415264e-03, -6.076963e+01
-6.547856000000e-03, -4.250122e-01, 2.432640e-03, -6.442210e+01
-6.530480000000e-03, -2.320469e-01, 2.450016e-03, -6.802661e+01
-6.513104000000e-03, -5.007328e-02, 2.467392e-03, -7.039627e+01
-6.495728000000e-03, 1.624328e-01, 2.484768e-03, -7.277438e+01
-6.478352000000e-03, 3.419639e-01, 2.502144e-03, -7.786574e+01
-6.460976000000e-03, 5.019541e-01, 2.519520e-03, -7.331603e+01
-6.443600000000e-03, 6.802638e-01, 2.536896e-03, -6.557541e+01
-6.426224000000e-03, 7.706400e-01, 2.554272e-03, -6.170145e+01
-6.408848000000e-03, 8.390328e-01, 2.571648e-03, -6.107371e+01
-6.391472000000e-03, 8.463606e-01, 2.589024e-03, -6.361571e+01
-6.374096000000e-03, 8.854422e-01, 2.606400e-03, -6.716640e+01
-6.356720000000e-03, 8.402541e-01, 2.623776e-03, -6.623125e+01
-6.339344000000e-03, 7.914021e-01, 2.641152e-03, -6.633266e+01
-6.321968000000e-03, 6.753786e-01, 2.658528e-03, -6.904000e+01
-6.304592000000e-03, 5.105032e-01, 2.675904e-03, -7.103510e+01
-6.287216000000e-03, 3.468491e-01, 2.693280e-03, -7.076782e+01
-6.269840000000e-03, 1.477772e-01, 2.710656e-03, -5.766514e+01
-6.252464000000e-03, -3.786029e-02, 2.728032e-03, -4.997838e+01
-6.235088000000e-03, -2.528090e-01, 2.745408e-03, -4.626553e+01
-6.217712000000e-03, -4.042501e-01, 2.762784e-03, -4.557004e+01
-6.200336000000e-03, -5.617978e-01, 2.780160e-03, -4.760604e+01
-6.182960000000e-03, -6.863703e-01, 2.797536e-03, -5.206305e+01
-6.165584000000e-03, -7.767465e-01, 2.814912e-03, -5.663884e+01
-6.148208000000e-03, -8.475819e-01, 2.832288e-03, -5.765440e+01
-6.130832000000e-03, -8.353689e-01, 2.849664e-03, -5.751326e+01
-6.113456000000e-03, -8.304837e-01, 2.867040e-03, -5.909780e+01
-6.096080000000e-03, -7.535418e-01, 2.884416e-03, -6.463540e+01
-6.078704000000e-03, -6.924768e-01, 2.901792e-03, -9.131104e+01
-6.061328000000e-03, -5.398144e-01, 2.919168e-03, -6.814182e+01
-6.043952000000e-03, -3.786029e-01, 2.936544e-03, -6.547325e+01
-6.026576000000e-03, -1.905227e-01, 2.953920e-03, -6.793346e+01
-6.009200000000e-03, 0.000000e+00, 2.971296e-03, -7.636452e+01
-5.991824000000e-03, 1.978505e-01, 2.988672e-03, -7.630303e+01
-5.974448000000e-03, 3.957010e-01, 3.006048e-03, -6.256534e+01
-5.957072000000e-03, 5.373718e-01, 3.023424e-03, -5.478389e+01
-5.939696000000e-03, 6.973620e-01, 3.040800e-03, -5.127096e+01
-5.922320000000e-03, 7.755252e-01, 3.058176e-03, -5.100610e+01
-5.904944000000e-03, 8.341476e-01, 3.075552e-03, -5.394681e+01
-5.887568000000e-03, 8.634588e-01, 3.092928e-03, -6.136372e+01
-5.870192000000e-03, 8.891061e-01, 3.110304e-03, -7.596166e+01
-5.852816000000e-03, 8.439180e-01, 3.127680e-03, -6.798706e+01
-5.835440000000e-03, 7.498779e-01, 3.145056e-03, -6.914278e+01
-5.818064000000e-03, 6.509526e-01, 3.162432e-03, -7.417335e+01
-5.800688000000e-03, 4.702003e-01, 3.179808e-03, -8.213827e+01
-5.783312000000e-03, 3.053249e-01, 3.197184e-03, -7.232203e+01
-5.765936000000e-03, 1.013679e-01, 3.214560e-03, -6.606503e+01
-5.748560000000e-03, -8.060577e-02, 3.231936e-03, -6.420687e+01
-5.731184000000e-03, -2.931119e-01, 3.249312e-03, -6.577905e+01
-5.713808000000e-03, -4.555447e-01, 3.266688e-03, -6.945860e+01
-5.696432000000e-03, -5.923303e-01, 3.284064e-03, -6.760425e+01
-5.679056000000e-03, -7.303371e-01, 3.301440e-03, -6.172577e+01
-5.661680000000e-03, -7.975086e-01, 3.318816e-03, -5.832210e+01
-5.644304000000e-03, -8.439180e-01, 3.336192e-03, -5.799296e+01
-5.626928000000e-03, -8.219346e-01, 3.353568e-03, -6.018939e+01
-5.609552000000e-03, -8.500245e-01, 3.370944e-03, -6.141934e+01
-5.592176000000e-03, -7.559844e-01, 3.388320e-03, -5.530744e+01
-5.574800000000e-03, -6.631656e-01, 3.405696e-03, -5.047339e+01
-5.557424000000e-03, -5.190523e-01, 3.423072e-03, -4.882575e+01
-5.540048000000e-03, -3.383000e-01, 3.440448e-03, -5.032679e+01
-5.522672000000e-03, -1.538837e-01, 3.457824e-03, -5.584653e+01
-5.505296000000e-03, 5.129458e-02, 3.475200e-03, -7.592596e+01
-5.487920000000e-03, 2.320469e-01, 3.492576e-03, -6.199999e+01
-5.470544000000e-03, 4.445530e-01, 3.509952e-03, -5.921493e+01
-5.453168000000e-03, 5.776747e-01, 3.527328e-03, -6.133203e+01
-5.435792000000e-03, 6.949194e-01, 3.544704e-03, -6.974162e+01
-5.418416000000e-03, 7.852956e-01, 3.562080e-03, -8.310263e+01
-5.401040000000e-03, 8.561310e-01, 3.579456e-03, -6.811409e+01
-5.383664000000e-03, 8.878848e-01, 3.596832e-03, -6.522709e+01
-5.366288000000e-03, 8.597949e-01, 3.614208e-03, -6.616947e+01
-5.348912000000e-03, 8.390328e-01, 3.631584e-03, -5.860939e+01
-5.331536000000e-03, 7.181241e-01, 3.648960e-03, -4.860067e+01
-5.314160000000e-03, 6.118711e-01, 3.666336e-03, -3.518214e+01
-5.296784000000e-03, 4.372252e-01, 3.683712e-03, -2.868094e+01
-5.279408000000e-03, 2.601368e-01, 3.701088e-03, -2.580592e+01
-5.262032000000e-03, 5.740108e-02, 3.718464e-03, -2.582713e+01
-5.244656000000e-03, -1.282364e-01, 3.735840e-03, -2.873754e+01
-5.227280000000e-03, -3.212018e-01, 3.753216e-03, -3.522053e+01
-5.209904000000e-03, -5.117245e-01, 3.770592e-03, -4.802864e+01
-5.192528000000e-03, -6.314119e-01, 3.787968e-03, -6.141671e+01
-5.175152000000e-03, -7.510992e-01, 3.805344e-03, -6.501523e+01
-5.157776000000e-03, -7.865169e-01, 3.822720e-03, -5.882339e+01
-5.140400000000e-03, -8.341476e-01, 3.840096e-03, -6.213945e+01
-5.123024000000e-03, -8.268198e-01, 3.857472e-03, -6.985865e+01
-5.105648000000e-03, -8.219346e-01, 3.874848e-03, -7.109757e+01
-5.088272000000e-03, -7.486566e-01, 3.892224e-03, -6.776951e+01
-5.070896000000e-03, -6.191989e-01, 3.909600e-03, -6.619548e+01
-5.053520000000e-03, -4.836346e-01, 3.926976e-03, -6.613661e+01
-5.036144000000e-03, -2.943332e-01, 3.944352e-03, -6.511702e+01
-5.018768000000e-03, -1.123596e-01, 3.961728e-03, -6.511797e+01
-5.001392000000e-03, 1.013679e-01, 3.979104e-03, -6.855092e+01
-4.984016000000e-03, 2.723498e-01, 3.996480e-03, -7.367297e+01
-4.966640000000e-03, 4.738642e-01, 4.013856e-03, -7.130272e+01
-4.949264000000e-03, 6.240841e-01, 4.031232e-03, -6.843229e+01
-4.931888000000e-03, 7.278945e-01, 4.048608e-03, -6.462884e+01
-4.914512000000e-03, 8.304837e-01, 4.065984e-03, -6.146495e+01
-4.897136000000e-03, 8.720079e-01, 4.083360e-03, -6.027338e+01
-4.879760000000e-03, 8.842209e-01, 4.100736e-03, -6.125861e+01
-4.862384000000e-03, 8.353689e-01, 4.118112e-03, -6.411858e+01
-4.845008000000e-03, 8.255985e-01, 4.135488e-03, -6.815159e+01
-4.827632000000e-03, 6.998046e-01, 4.152864e-03, -7.231005e+01
-4.810256000000e-03, 5.703469e-01, 4.170240e-03, -7.059056e+01
-4.792880000000e-03, 4.030288e-01, 4.187616e-03, -6.845984e+01
-4.775504000000e-03, 2.161700e-01, 4.204992e-03, -6.879503e+01
-4.758128000000e-03, 1.831949e-02, 4.222368e-03, -6.738659e+01
-4.740752000000e-03, -1.819736e-01, 4.239744e-03, -6.184183e+01
-4.723376000000e-03, -3.480704e-01, 4.257120e-03, -5.663942e+01
-4.706000000000e-03, -5.495848e-01, 4.274496e-03, -5.369792e+01
-4.688624000000e-03, -6.619443e-01, 4.291872e-03, -5.324632e+01
-4.671248000000e-03, -7.413288e-01, 4.309248e-03, -5.576083e+01
-4.653872000000e-03, -8.036151e-01, 4.326624e-03, -5.974407e+01
-4.636496000000e-03, -8.610162e-01, 4.344000e-03, -5.428691e+01
-4.619120000000e-03, -8.524671e-01, 4.361376e-03, -5.079364e+01
-4.601744000000e-03, -7.987299e-01, 4.378752e-03, -5.075177e+01
-4.584368000000e-03, -7.425501e-01, 4.396128e-03, -5.392640e+01
-4.566992000000e-03, -5.825599e-01, 4.413504e-03, -6.091160e+01
-4.549616000000e-03, -4.445530e-01, 4.430880e-03, -6.822320e+01
-4.532240000000e-03, -2.515877e-01, 4.448256e-03, -6.709033e+01
-4.514864000000e-03, -6.839277e-02, 4.465632e-03, -6.722322e+01
-4.497488000000e-03, 1.453346e-01, 4.483008e-03, -6.800029e+01
-4.480112000000e-03, 3.224231e-01, 4.500384e-03, -6.992003e+01
-4.462736000000e-03, 4.921837e-01, 4.517760e-03, -8.108482e+01
-4.445360000000e-03, 6.595017e-01, 4.535136e-03, -6.826999e+01
-4.427984000000e-03, 7.608696e-01, 4.552512e-03, -6.130184e+01
-4.410608000000e-03, 8.451393e-01, 4.569888e-03, -5.920735e+01
-4.393232000000e-03, 8.488032e-01, 4.587264e-03, -6.010692e+01
-4.375856000000e-03, 8.866635e-01, 4.604640e-03, -6.334459e+01
-4.358480000000e-03, 8.353689e-01, 4.622016e-03, -6.740354e+01
-4.341104000000e-03, 7.975086e-01, 4.639392e-03, -6.911985e+01
-4.323728000000e-03, 6.875916e-01, 4.656768e-03, -6.866939e+01
-4.306352000000e-03, 5.251588e-01, 4.674144e-03, -6.907061e+01
-4.288976000000e-03, 3.676112e-01, 4.691520e-03, -7.264777e+01
-4.271600000000e-03, 1.673180e-01, 4.708896e-03, -7.657027e+01
-4.254224000000e-03, -1.831949e-02, 4.726272e-03, -7.150056e+01
-4.236848000000e-03, -2.332682e-01, 4.743648e-03, -6.930974e+01
-4.219472000000e-03, -3.871519e-01, 4.761024e-03, -6.944150e+01
-4.202096000000e-03, -5.532487e-01, 4.778400e-03, -7.003654e+01
-4.184720000000e-03, -6.741573e-01, 4.795776e-03, -6.977153e+01
-4.167344000000e-03, -7.596483e-01, 4.813152e-03, -6.857422e+01
-4.149968000000e-03, -8.390328e-01, 4.830528e-03, -6.686374e+01
-4.132592000000e-03, -8.426967e-01, 4.847904e-03, -6.629932e+01
-4.115216000000e-03, -8.329263e-01, 4.865280e-03, -6.874424e+01
-4.097840000000e-03, -7.596483e-01, 4.882656e-03, -7.493956e+01
-4.080464000000e-03, -7.083537e-01, 4.900032e-03, -7.469336e+01
-4.063088000000e-03, -5.508061e-01, 4.917408e-03, -7.604117e+01
-4.045712000000e-03, -3.957010e-01, 4.934784e-03, -7.198067e+01
-4.028336000000e-03, -2.076209e-01, 4.952160e-03, -6.744472e+01
-4.010960000000e-03, -1.954079e-02, 4.969536e-03, -6.638415e+01
-3.993584000000e-03, 1.807523e-01, 4.986912e-03, -6.567468e+01
-3.976208000000e-03, 3.749390e-01, 5.004288e-03, -6.310931e+01
-3.958832000000e-03, 5.239375e-01, 5.021664e-03, -6.076668e+01
-3.941456000000e-03, 7.034685e-01, 5.039040e-03, -6.027218e+01
-3.924080000000e-03, 7.840743e-01, 5.056416e-03, -6.165788e+01
-3.906704000000e-03, 8.365902e-01, 5.073792e-03, -6.474629e+01
-3.889328000000e-03, 8.646801e-01, 5.091168e-03, -7.081329e+01
-3.871952000000e-03, 8.976551e-01, 5.108544e-03, -8.143767e+01
-3.854576000000e-03, 8.573523e-01, 5.125920e-03, -7.518770e+01
-3.837200000000e-03, 7.718613e-01, 5.143296e-03, -6.664338e+01
-3.819824000000e-03, 6.717147e-01, 5.160672e-03, -6.974560e+01
-3.802448000000e-03, 4.921837e-01, 5.178048e-03, -5.495530e+01
-3.785072000000e-03, 3.285296e-01, 5.195424e-03, -4.413064e+01
-3.767696000000e-03, 1.233513e-01, 5.212800e-03, -3.887716e+01
-3.750320000000e-03, -5.984368e-02, 5.230176e-03, -3.695676e+01
-3.732944000000e-03, -2.735711e-01, 5.247552e-03, -3.789957e+01
-3.715568000000e-03, -4.347826e-01, 5.264928e-03, -4.190575e+01
-3.698192000000e-03, -5.691256e-01, 5.282304e-03, -5.016845e+01
-3.680816000000e-03, -7.095750e-01, 5.299680e-03, -7.077318e+01
-3.663440000000e-03, -7.901808e-01, 5.317056e-03, -6.935610e+01
-3.646064000000e-03, -8.414754e-01, 5.334432e-03, -7.885727e+01
