% Moku:Go Oscilloscope
% Channel A
% Channel B
% Time span 10.88 ms, time offset -555.9 us, Normal acquisition mode, no averaging
% Edge trigger: Channel A, level 0.000 V, Auto mode, Rising edge, Auto sensitivity, noise reject off, HF reject off
% Output A - Sine, 10.000 000 000 000 MHz, 1.000 0 Vpp, offset 0.000 0 V, phase 0.000 000 deg
% Acquired 2023-03-20 T 17:01:03 +1100
% Time (s), Channel A (Input 1) (V), Freq (Hz), Math (Ch A FFT) (dBm)
-4.886784000000e-03, 8.622375e-01, 0.000000e+00, -1.944471e+01
-4.876032000000e-03, 8.878848e-01, 1.075200e-05, -2.087479e+01
-4.865280000000e-03, 8.512458e-01, 2.150400e-05, -2.550159e+01
-4.854528000000e-03, 8.255985e-01, 3.225600e-05, -3.498830e+01
-4.843776000000e-03, 8.146068e-01, 4.300800e-05, -6.832538e+01
-4.833024000000e-03, 7.840743e-01, 5.376000e-05, -5.213922e+01
-4.822272000000e-03, 6.778212e-01, 6.451200e-05, -6.041006e+01
-4.811520000000e-03, 5.886664e-01, 7.526400e-05, -5.406618e+01
-4.800768000000e-03, 5.349292e-01, 8.601600e-05, -5.006703e+01
-4.790016000000e-03, 4.201270e-01, 9.676800e-05, -4.543990e+01
-4.779264000000e-03, 2.845628e-01, 1.075200e-04, -4.275411e+01
-4.768512000000e-03, 1.697606e-01, 1.182720e-04, -4.227803e+01
-4.757760000000e-03, 8.549097e-02, 1.290240e-04, -4.391940e+01
-4.747008000000e-03, -6.717147e-02, 1.397760e-04, -4.730699e+01
-4.736256000000e-03, -2.137274e-01, 1.505280e-04, -5.153132e+01
-4.725504000000e-03, -2.955545e-01, 1.612800e-04, -5.625462e+01
-4.714752000000e-03, -3.981436e-01, 1.720320e-04, -6.427748e+01
-4.704000000000e-03, -5.251588e-01, 1.827840e-04, -7.366960e+01
-4.693248000000e-03, -6.314119e-01, 1.935360e-04, -5.318865e+01
-4.682496000000e-03, -6.656082e-01, 2.042880e-04, -4.538317e+01
-4.671744000000e-03, -7.205667e-01, 2.150400e-04, -4.286629e+01
-4.660992000000e-03, -7.816317e-01, 2.257920e-04, -4.338647e+01
-4.650240000000e-03, -8.121642e-01, 2.365440e-04, -4.547640e+01
-4.639488000000e-03, -8.292624e-01, 2.472960e-04, -4.932182e+01
-4.628736000000e-03, -8.597949e-01, 2.580480e-04, -6.139242e+01
-4.617984000000e-03, -8.732292e-01, 2.688000e-04, -6.048291e+01
-4.607232000000e-03, -7.999512e-01, 2.795520e-04, -7.098224e+01
-4.596480000000e-03, -7.755252e-01, 2.903040e-04, -5.776681e+01
-4.585728000000e-03, -7.657548e-01, 3.010560e-04, -6.468261e+01
-4.574976000000e-03, -6.912555e-01, 3.118080e-04, -5.141652e+01
-4.564224000000e-03, -5.837812e-01, 3.225600e-04, -6.132410e+01
-4.553472000000e-03, -4.982902e-01, 3.333120e-04, -5.104976e+01
-4.542720000000e-03, -4.323400e-01, 3.440640e-04, -6.569003e+01
-4.531968000000e-03, -2.894480e-01, 3.548160e-04, -4.548882e+01
-4.521216000000e-03, -1.538837e-01, 3.655680e-04, -8.025559e+01
-4.510464000000e-03, -6.350758e-02, 3.763200e-04, -3.950404e+01
-4.499712000000e-03, 4.274548e-02, 3.870720e-04, -5.822872e+01
-4.488960000000e-03, 1.966292e-01, 3.978240e-04, -3.317209e+01
-4.478208000000e-03, 3.297509e-01, 4.085760e-04, -5.405747e+01
-4.467456000000e-03, 3.993649e-01, 4.193280e-04, -2.370572e+01
-4.456704000000e-03, 5.178310e-01, 4.300800e-04, -4.382987e+01
-4.445952000000e-03, 6.436248e-01, 4.408320e-04, -6.947633e+00
-4.435200000000e-03, 7.120176e-01, 4.515840e-04, 2.647512e+00
-4.424448000000e-03, 7.584270e-01, 4.623360e-04, 7.366641e+00
-4.413696000000e-03, 8.085003e-01, 4.730880e-04, 8.895534e+00
-4.402944000000e-03, 8.524671e-01, 4.838400e-04, 7.584405e+00
-4.392192000000e-03, 8.353689e-01, 4.945920e-04, 3.135495e+00
-4.381440000000e-03, 8.622375e-01, 5.053440e-04, -5.961853e+00
-4.370688000000e-03, 8.952125e-01, 5.160960e-04, -3.962207e+01
-4.359936000000e-03, 8.878848e-01, 5.268480e-04, -2.319719e+01
-4.349184000000e-03, 8.219346e-01, 5.376000e-04, -5.236097e+01
-4.338432000000e-03, 7.816317e-01, 5.483520e-04, -3.268905e+01
-4.327680000000e-03, 7.645335e-01, 5.591040e-04, -5.721947e+01
-4.316928000000e-03, 6.521739e-01, 5.698560e-04, -3.970818e+01
-4.306176000000e-03, 5.483635e-01, 5.806080e-04, -5.471525e+01
-4.295424000000e-03, 4.726429e-01, 5.913600e-04, -4.510160e+01
-4.284672000000e-03, 3.834880e-01, 6.021120e-04, -6.578816e+01
-4.273920000000e-03, 2.320469e-01, 6.128640e-04, -4.861577e+01
-4.263168000000e-03, 1.001466e-01, 6.236160e-04, -6.006345e+01
-4.252416000000e-03, 2.198339e-02, 6.343680e-04, -5.303369e+01
-4.241664000000e-03, -1.172448e-01, 6.451200e-04, -6.792249e+01
-4.230912000000e-03, -2.613581e-01, 6.558720e-04, -5.945293e+01
-4.220160000000e-03, -3.651686e-01, 6.666240e-04, -6.165603e+01
-4.209408000000e-03, -4.372252e-01, 6.773760e-04, -5.325585e+01
-4.198656000000e-03, -5.422570e-01, 6.881280e-04, -5.848840e+01
-4.187904000000e-03, -6.424035e-01, 6.988800e-04, -6.387965e+01
-4.177152000000e-03, -6.827064e-01, 7.096320e-04, -5.922033e+01
-4.166400000000e-03, -7.462140e-01, 7.203840e-04, -5.632727e+01
-4.155648000000e-03, -8.121642e-01, 7.311360e-04, -5.251700e+01
-4.144896000000e-03, -8.512458e-01, 7.418880e-04, -5.237782e+01
-4.134144000000e-03, -8.207133e-01, 7.526400e-04, -5.846773e+01
-4.123392000000e-03, -8.304837e-01, 7.633920e-04, -6.430810e+01
-4.112640000000e-03, -8.488032e-01, 7.741440e-04, -6.181733e+01
-4.101888000000e-03, -7.938447e-01, 7.848960e-04, -5.712099e+01
-4.091136000000e-03, -7.437714e-01, 7.956480e-04, -5.372306e+01
-4.080384000000e-03, -7.095750e-01, 8.064000e-04, -5.021291e+01
-4.069632000000e-03, -6.607230e-01, 8.171520e-04, -4.723436e+01
-4.058880000000e-03, -5.349292e-01, 8.279040e-04, -4.556368e+01
-4.048128000000e-03, -4.335613e-01, 8.386560e-04, -4.552062e+01
-4.037376000000e-03, -3.663899e-01, 8.494080e-04, -4.731694e+01
-4.026624000000e-03, -2.454812e-01, 8.601600e-04, -5.134774e+01
-4.015872000000e-03, -1.001466e-01, 8.709120e-04, -5.787219e+01
-4.005120000000e-03, 1.709819e-02, 8.816640e-04, -6.453869e+01
-3.994368000000e-03, 1.013679e-01, 8.924160e-04, -6.391716e+01
-3.983616000000e-03, 2.564729e-01, 9.031680e-04, -6.416284e+01
-3.972864000000e-03, 3.932584e-01, 9.139200e-04, -6.661556e+01
-3.962112000000e-03, 4.689790e-01, 9.246720e-04, -6.999859e+01
-3.951360000000e-03, 5.605765e-01, 9.354240e-04, -7.552473e+01
-3.940608000000e-03, 6.656082e-01, 9.461760e-04, -6.955492e+01
-3.929856000000e-03, 7.401075e-01, 9.569280e-04, -6.507254e+01
-3.919104000000e-03, 7.608696e-01, 9.676800e-04, -6.507809e+01
-3.908352000000e-03, 8.060577e-01, 9.784320e-04, -6.620066e+01
-3.897600000000e-03, 8.524671e-01, 9.891840e-04, -6.650234e+01
-3.886848000000e-03, 8.707866e-01, 9.999360e-04, -6.854998e+01
-3.876096000000e-03, 8.671227e-01, 1.010688e-03, -7.428027e+01
-3.865344000000e-03, 8.817783e-01, 1.021440e-03, -6.144305e+01
-3.854592000000e-03, 8.878848e-01, 1.032192e-03, -5.249551e+01
-3.843840000000e-03, 7.999512e-01, 1.042944e-03, -4.753417e+01
-3.833088000000e-03, 7.486566e-01, 1.053696e-03, -4.566156e+01
-3.822336000000e-03, 7.144602e-01, 1.064448e-03, -4.677680e+01
-3.811584000000e-03, 6.289693e-01, 1.075200e-03, -5.171351e+01
-3.800832000000e-03, 5.031754e-01, 1.085952e-03, -6.624264e+01
-3.790080000000e-03, 4.018075e-01, 1.096704e-03, -6.302793e+01
-3.779328000000e-03, 3.273083e-01, 1.107456e-03, -6.285665e+01
-3.768576000000e-03, 1.770884e-01, 1.118208e-03, -7.007823e+01
-3.757824000000e-03, 3.908158e-02, 1.128960e-03, -6.525019e+01
-3.747072000000e-03, -5.617978e-02, 1.139712e-03, -5.603437e+01
-3.736320000000e-03, -1.587689e-01, 1.150464e-03, -5.046698e+01
-3.725568000000e-03, -3.102101e-01, 1.161216e-03, -4.775316e+01
-3.714816000000e-03, -4.372252e-01, 1.171968e-03, -4.755081e+01
-3.704064000000e-03, -4.946263e-01, 1.182720e-03, -4.978305e+01
-3.693312000000e-03, -5.911090e-01, 1.193472e-03, -5.431553e+01
-3.682560000000e-03, -6.936981e-01, 1.204224e-03, -6.027773e+01
-3.671808000000e-03, -7.559844e-01, 1.214976e-03, -6.548210e+01
-3.661056000000e-03, -7.816317e-01, 1.225728e-03, -6.971084e+01
-3.650304000000e-03, -8.182707e-01, 1.236480e-03, -7.582002e+01
-3.639552000000e-03, -8.451393e-01, 1.247232e-03, -7.834442e+01
-3.628800000000e-03, -8.158281e-01, 1.257984e-03, -7.210591e+01
-3.618048000000e-03, -8.292624e-01, 1.268736e-03, -6.998797e+01
-3.607296000000e-03, -8.500245e-01, 1.279488e-03, -7.355691e+01
-3.596544000000e-03, -8.146068e-01, 1.290240e-03, -5.900164e+01
-3.585792000000e-03, -7.278945e-01, 1.300992e-03, -5.278501e+01
-3.575040000000e-03, -6.680508e-01, 1.311744e-03, -5.055097e+01
-3.564288000000e-03, -6.289693e-01, 1.322496e-03, -5.100659e+01
-3.553536000000e-03, -5.068393e-01, 1.333248e-03, -5.381403e+01
-3.542784000000e-03, -3.895945e-01, 1.344000e-03, -5.852488e+01
-3.532032000000e-03, -3.004397e-01, 1.354752e-03, -6.456065e+01
-3.521280000000e-03, -2.027357e-01, 1.365504e-03, -5.960125e+01
-3.510528000000e-03, -4.396678e-02, 1.376256e-03, -6.998845e+01
-3.499776000000e-03, 8.915487e-02, 1.387008e-03, -4.123759e+01
-3.489024000000e-03, 1.697606e-01, 1.397760e-03, -3.177994e+01
-3.478272000000e-03, 3.016610e-01, 1.408512e-03, -2.697738e+01
-3.467520000000e-03, 4.384465e-01, 1.419264e-03, -2.530829e+01
-3.456768000000e-03, 5.373718e-01, 1.430016e-03, -2.644691e+01
-3.446016000000e-03, 5.911090e-01, 1.440768e-03, -3.069094e+01
-3.435264000000e-03, 6.765999e-01, 1.451520e-03, -3.955845e+01
-3.424512000000e-03, 7.510992e-01, 1.462272e-03, -6.907869e+01
-3.413760000000e-03, 7.852956e-01, 1.473024e-03, -5.422114e+01
-3.403008000000e-03, 8.341476e-01, 1.483776e-03, -6.390872e+01
-3.392256000000e-03, 8.842209e-01, 1.494528e-03, -6.761933e+01
-3.381504000000e-03, 9.037616e-01, 1.505280e-03, -6.491876e+01
-3.370752000000e-03, 8.573523e-01, 1.516032e-03, -6.501987e+01
-3.360000000000e-03, 8.610162e-01, 1.526784e-03, -7.149222e+01
-3.349248000000e-03, 8.671227e-01, 1.537536e-03, -6.968310e+01
-3.338496000000e-03, 7.938447e-01, 1.548288e-03, -6.918935e+01
-3.327744000000e-03, 7.132389e-01, 1.559040e-03, -6.985214e+01
-3.316992000000e-03, 6.570591e-01, 1.569792e-03, -7.073962e+01
-3.306240000000e-03, 5.923303e-01, 1.580544e-03, -7.494143e+01
-3.295488000000e-03, 4.518808e-01, 1.591296e-03, -8.307640e+01
-3.284736000000e-03, 3.383000e-01, 1.602048e-03, -6.953491e+01
-3.273984000000e-03, 2.589155e-01, 1.612800e-03, -6.265429e+01
-3.263232000000e-03, 1.343429e-01, 1.623552e-03, -5.792576e+01
-3.252480000000e-03, -1.831949e-02, 1.634304e-03, -5.428694e+01
-3.241728000000e-03, -1.355642e-01, 1.645056e-03, -5.128021e+01
-3.230976000000e-03, -2.161700e-01, 1.655808e-03, -4.888781e+01
-3.220224000000e-03, -3.651686e-01, 1.666560e-03, -4.761214e+01
-3.209472000000e-03, -4.946263e-01, 1.677312e-03, -4.801640e+01
-3.198720000000e-03, -5.605765e-01, 1.688064e-03, -5.057973e+01
-3.187968000000e-03, -6.387396e-01, 1.698816e-03, -5.600163e+01
-3.177216000000e-03, -7.193454e-01, 1.709568e-03, -6.615901e+01
-3.166464000000e-03, -7.755252e-01, 1.720320e-03, -6.822613e+01
-3.155712000000e-03, -7.706400e-01, 1.731072e-03, -6.302594e+01
-3.144960000000e-03, -8.097216e-01, 1.741824e-03, -6.013482e+01
-3.134208000000e-03, -8.439180e-01, 1.752576e-03, -5.878452e+01
-3.123456000000e-03, -8.439180e-01, 1.763328e-03, -5.922830e+01
-3.112704000000e-03, -8.170494e-01, 1.774080e-03, -6.128648e+01
-3.101952000000e-03, -8.170494e-01, 1.784832e-03, -6.420485e+01
-3.091200000000e-03, -8.085003e-01, 1.795584e-03, -6.700294e+01
-3.080448000000e-03, -7.022472e-01, 1.806336e-03, -6.946259e+01
-3.069696000000e-03, -6.289693e-01, 1.817088e-03, -7.177806e+01
-3.058944000000e-03, -5.727895e-01, 1.827840e-03, -7.189167e+01
-3.048192000000e-03, -4.775281e-01, 1.838592e-03, -7.017786e+01
-3.037440000000e-03, -3.334148e-01, 1.849344e-03, -6.959095e+01
-3.026688000000e-03, -2.247191e-01, 1.860096e-03, -7.108108e+01
-3.015936000000e-03, -1.441133e-01, 1.870848e-03, -7.483973e+01
-3.005184000000e-03, 8.549097e-03, 1.881600e-03, -7.156653e+01
-2.994432000000e-03, 1.489985e-01, 1.892352e-03, -6.567226e+01
-2.983680000000e-03, 2.454812e-01, 1.903104e-03, -6.189329e+01
-2.972928000000e-03, 3.431852e-01, 1.913856e-03, -5.953177e+01
-2.962176000000e-03, 4.824133e-01, 1.924608e-03, -5.863137e+01
-2.951424000000e-03, 5.959942e-01, 1.935360e-03, -6.020555e+01
-2.940672000000e-03, 6.375183e-01, 1.946112e-03, -6.643598e+01
-2.929920000000e-03, 7.144602e-01, 1.956864e-03, -7.426620e+01
-2.919168000000e-03, 7.975086e-01, 1.967616e-03, -5.538037e+01
-2.908416000000e-03, 8.500245e-01, 1.978368e-03, -4.432297e+01
-2.897664000000e-03, 8.524671e-01, 1.989120e-03, -3.849181e+01
-2.886912000000e-03, 8.781144e-01, 1.999872e-03, -3.594494e+01
-2.876160000000e-03, 8.903274e-01, 2.010624e-03, -3.615603e+01
-2.865408000000e-03, 8.463606e-01, 2.021376e-03, -3.919176e+01
-2.854656000000e-03, 8.341476e-01, 2.032128e-03, -4.585993e+01
-2.843904000000e-03, 8.292624e-01, 2.042880e-03, -6.002074e+01
-2.833152000000e-03, 7.804104e-01, 2.053632e-03, -6.425261e+01
-2.822400000000e-03, 6.692721e-01, 2.064384e-03, -6.612005e+01
-2.811648000000e-03, 5.996581e-01, 2.075136e-03, -6.915257e+01
-2.800896000000e-03, 5.434783e-01, 2.085888e-03, -6.907486e+01
-2.790144000000e-03, 4.103566e-01, 2.096640e-03, -6.947771e+01
-2.779392000000e-03, 2.833415e-01, 2.107392e-03, -6.923981e+01
-2.768640000000e-03, 1.831949e-01, 2.118144e-03, -6.856413e+01
-2.757888000000e-03, 8.182707e-02, 2.128896e-03, -6.832601e+01
-2.747136000000e-03, -7.816317e-02, 2.139648e-03, -6.885586e+01
-2.736384000000e-03, -2.063996e-01, 2.150400e-03, -6.980820e+01
-2.725632000000e-03, -2.857841e-01, 2.161152e-03, -7.092149e+01
-2.714880000000e-03, -4.079140e-01, 2.171904e-03, -7.294541e+01
-2.704128000000e-03, -5.373718e-01, 2.182656e-03, -7.729978e+01
-2.693376000000e-03, -6.265267e-01, 2.193408e-03, -8.986346e+01
-2.682624000000e-03, -6.656082e-01, 2.204160e-03, -8.057159e+01
-2.671872000000e-03, -7.254519e-01, 2.214912e-03, -7.982626e+01
-2.661120000000e-03, -7.804104e-01, 2.225664e-03, -7.139310e+01
-2.650368000000e-03, -8.011725e-01, 2.236416e-03, -5.944253e+01
-2.639616000000e-03, -8.353689e-01, 2.247168e-03, -5.423489e+01
-2.628864000000e-03, -8.720079e-01, 2.257920e-03, -5.251999e+01
-2.618112000000e-03, -8.781144e-01, 2.268672e-03, -5.351019e+01
-2.607360000000e-03, -8.060577e-01, 2.279424e-03, -5.690115e+01
-2.596608000000e-03, -7.962873e-01, 2.290176e-03, -6.248660e+01
-2.585856000000e-03, -7.791891e-01, 2.300928e-03, -7.070420e+01
-2.575104000000e-03, -6.863703e-01, 2.311680e-03, -7.494722e+01
-2.564352000000e-03, -5.850025e-01, 2.322432e-03, -6.842012e+01
-2.553600000000e-03, -5.105032e-01, 2.333184e-03, -5.240044e+01
-2.542848000000e-03, -4.323400e-01, 2.343936e-03, -4.330972e+01
-2.532096000000e-03, -2.784563e-01, 2.354688e-03, -3.847330e+01
-2.521344000000e-03, -1.599902e-01, 2.365440e-03, -3.672241e+01
-2.510592000000e-03, -7.449927e-02, 2.376192e-03, -3.779468e+01
-2.499840000000e-03, 5.007328e-02, 2.386944e-03, -4.205371e+01
-2.489088000000e-03, 2.051783e-01, 2.397696e-03, -5.134444e+01
-2.478336000000e-03, 3.212018e-01, 2.408448e-03, -6.937302e+01
-2.467584000000e-03, 3.932584e-01, 2.419200e-03, -6.205743e+01
-2.456832000000e-03, 5.227162e-01, 2.429952e-03, -6.887273e+01
-2.446080000000e-03, 6.338545e-01, 2.440704e-03, -7.049288e+01
-2.435328000000e-03, 6.961407e-01, 2.451456e-03, -6.652518e+01
-2.424576000000e-03, 7.547631e-01, 2.462208e-03, -6.436138e+01
-2.413824000000e-03, 8.158281e-01, 2.472960e-03, -6.521660e+01
-2.403072000000e-03, 8.536884e-01, 2.483712e-03, -6.887980e+01
-2.392320000000e-03, 8.317050e-01, 2.494464e-03, -7.654660e+01
-2.381568000000e-03, 8.646801e-01, 2.505216e-03, -8.007542e+01
-2.370816000000e-03, 8.891061e-01, 2.515968e-03, -7.579827e+01
-2.360064000000e-03, 8.646801e-01, 2.526720e-03, -7.752377e+01
-2.349312000000e-03, 8.121642e-01, 2.537472e-03, -7.679656e+01
-2.338560000000e-03, 7.914021e-01, 2.548224e-03, -7.109532e+01
-2.327808000000e-03, 7.620909e-01, 2.558976e-03, -6.833979e+01
-2.317056000000e-03, 6.387396e-01, 2.569728e-03, -6.589660e+01
-2.306304000000e-03, 5.520274e-01, 2.580480e-03, -6.087553e+01
-2.295552000000e-03, 4.799707e-01, 2.591232e-03, -5.482023e+01
-2.284800000000e-03, 3.724964e-01, 2.601984e-03, -5.014953e+01
-2.274048000000e-03, 2.234978e-01, 2.612736e-03, -4.759633e+01
-2.263296000000e-03, 1.086957e-01, 2.623488e-03, -4.729793e+01
-2.252544000000e-03, 2.320469e-02, 2.634240e-03, -4.938206e+01
-2.241792000000e-03, -1.294577e-01, 2.644992e-03, -5.414363e+01
-2.231040000000e-03, -2.674646e-01, 2.655744e-03, -6.174179e+01
-2.220288000000e-03, -3.578408e-01, 2.666496e-03, -6.797536e+01
-2.209536000000e-03, -4.445530e-01, 2.677248e-03, -7.207850e+01
-2.198784000000e-03, -5.569126e-01, 2.688000e-03, -7.832380e+01
-2.188032000000e-03, -6.448461e-01, 2.698752e-03, -7.782636e+01
-2.177280000000e-03, -6.802638e-01, 2.709504e-03, -8.014567e+01
-2.166528000000e-03, -7.437714e-01, 2.720256e-03, -6.661912e+01
-2.155776000000e-03, -8.097216e-01, 2.731008e-03, -6.291803e+01
-2.145024000000e-03, -8.488032e-01, 2.741760e-03, -6.326543e+01
-2.134272000000e-03, -8.280411e-01, 2.752512e-03, -6.673860e+01
-2.123520000000e-03, -8.475819e-01, 2.763264e-03, -7.447789e+01
-2.112768000000e-03, -8.488032e-01, 2.774016e-03, -8.046592e+01
-2.102016000000e-03, -7.865169e-01, 2.784768e-03, -7.398337e+01
-2.091264000000e-03, -7.486566e-01, 2.795520e-03, -7.487431e+01
-2.080512000000e-03, -7.230093e-01, 2.806272e-03, -8.630480e+01
-2.069760000000e-03, -6.582804e-01, 2.817024e-03, -7.131072e+01
-2.059008000000e-03, -5.288227e-01, 2.827776e-03, -6.473250e+01
-2.048256000000e-03, -4.457743e-01, 2.838528e-03, -6.227016e+01
-2.037504000000e-03, -3.749390e-01, 2.849280e-03, -6.189997e+01
-2.026752000000e-03, -2.381534e-01, 2.860032e-03, -6.242753e+01
-2.016000000000e-03, -1.013679e-01, 2.870784e-03, -6.375838e+01
-2.005248000000e-03, 3.663899e-03, 2.881536e-03, -6.874353e+01
-1.994496000000e-03, 1.001466e-01, 2.892288e-03, -6.602466e+01
-1.983744000000e-03, 2.638007e-01, 2.903040e-03, -6.175148e+01
-1.972992000000e-03, 3.883732e-01, 2.913792e-03, -6.137753e+01
-1.962240000000e-03, 4.592086e-01, 2.924544e-03, -4.541627e+01
-1.951488000000e-03, 5.654617e-01, 2.935296e-03, -3.908079e+01
-1.940736000000e-03, 6.802638e-01, 2.946048e-03, -3.670402e+01
-1.929984000000e-03, 7.486566e-01, 2.956800e-03, -3.744056e+01
-1.919232000000e-03, 7.706400e-01, 2.967552e-03, -4.143324e+01
-1.908480000000e-03, 8.158281e-01, 2.978304e-03, -5.000383e+01
-1.897728000000e-03, 8.549097e-01, 2.989056e-03, -6.536762e+01
-1.886976000000e-03, 8.573523e-01, 2.999808e-03, -6.535804e+01
-1.876224000000e-03, 8.695653e-01, 3.010560e-03, -7.548286e+01
-1.865472000000e-03, 8.952125e-01, 3.021312e-03, -7.010286e+01
-1.854720000000e-03, 8.915487e-01, 3.032064e-03, -7.760621e+01
-1.843968000000e-03, 8.023938e-01, 3.042816e-03, -6.786462e+01
-1.833216000000e-03, 7.633122e-01, 3.053568e-03, -6.283943e+01
-1.822464000000e-03, 7.254519e-01, 3.064320e-03, -6.265662e+01
-1.811712000000e-03, 6.204202e-01, 3.075072e-03, -6.661251e+01
-1.800960000000e-03, 5.007328e-01, 3.085824e-03, -7.489129e+01
-1.790208000000e-03, 4.127992e-01, 3.096576e-03, -7.428707e+01
-1.779456000000e-03, 3.297509e-01, 3.107328e-03, -7.248596e+01
-1.768704000000e-03, 1.673180e-01, 3.118080e-03, -7.274847e+01
-1.757952000000e-03, 4.274548e-02, 3.128832e-03, -7.242299e+01
-1.747200000000e-03, -4.763068e-02, 3.139584e-03, -7.004055e+01
-1.736448000000e-03, -1.709819e-01, 3.150336e-03, -6.756045e+01
-1.725696000000e-03, -3.224231e-01, 3.161088e-03, -6.877859e+01
-1.714944000000e-03, -4.286761e-01, 3.171840e-03, -6.580095e+01
-1.704192000000e-03, -4.872985e-01, 3.182592e-03, -5.628813e+01
-1.693440000000e-03, -5.935516e-01, 3.193344e-03, -5.139013e+01
-1.682688000000e-03, -6.875916e-01, 3.204096e-03, -4.964303e+01
-1.671936000000e-03, -7.413288e-01, 3.214848e-03, -5.058433e+01
-1.661184000000e-03, -7.816317e-01, 3.225600e-03, -5.427423e+01
-1.650432000000e-03, -8.292624e-01, 3.236352e-03, -6.091697e+01
-1.639680000000e-03, -8.451393e-01, 3.247104e-03, -6.844056e+01
-1.628928000000e-03, -8.097216e-01, 3.257856e-03, -7.632929e+01
-1.618176000000e-03, -8.378115e-01, 3.268608e-03, -7.525961e+01
-1.607424000000e-03, -8.512458e-01, 3.279360e-03, -6.459132e+01
-1.596672000000e-03, -8.023938e-01, 3.290112e-03, -5.955948e+01
-1.585920000000e-03, -7.217880e-01, 3.300864e-03, -5.684016e+01
